; (content of file C:\Documents and Settings\Emanuele\Documenti\CNR\perov Cl Miyasaka Ema\1502 TUTTI i dati vs T\TiO2compact500C_air_60C_15_dome\60C_air_15_1ass1_axssoll_035sci_2tho_1_normalized.raw)
_FILEVERSION = 2
_SAMPLE = 2tho_14
_+SAMPLE = 
_SITE = Italy
_USER = Administrator
_GONIOMETER_CODE = 20
_STAGE_CODE = 13
; Goniometer : D8 theta/2theta, stage : Unknown
_SAMPLE_CHANGER_CODE = 0
_ATTACHMENTS_CODE = 0
_GONIOMETER_RADIUS = 300
_FIXED_DIVSLIT = 0.6
_FIXED_SAMPLESLIT = 0
_FIXED_DETSLIT = 43.98
_MONOCHROMATOR = 0
; Incident beam monochromator : None
_THIN_FILM = N
_BETA_FILTER = Y
_FIXED_ANTISLIT = 32.95
_ANALYZER_CODE = 0
; Received beam analyzer : None
_DATEMEASURED = "02-Feb-2015 12:46:52"
_WL_UNIT = A
_WL1 = 1.5406
_WL2 = 1.54439
_WL3 = 1.39222
_WLRATIO = 0.5
_ANODE = Cu

; Data for range 1
_DRIVE = COUPLED
_STEPTIME = 1
_STEPSIZE = 0.02
_STEPMODE = C
_START = 11.5
_THETA = 6.5976
_2THETA = 11.5
_KHI = -1.6971
_PHI = 0
_X = 0
_Y = 0
_Z = 0.4091
_ANTISCATTER = 0.499
_DETECTOR = 1
; Detector type : Scintillation counter
_HV = 665
_GAIN = 80
_LLD = 0.592
_ULD = 1.474
_DETECTORSLIT = out
_AUX1 = 0.07983
_AUX2 = -2e-006
_AUX3 = -7.5
_TIMESTARTED = 91
_TEMPERATURE = 60.09
_TEMP_RATE = 0
_TEMP_DELAY = -1
_KV = 40
_MA = 40
_RANGE_WL = 1.5406
_3DPLANE = 0
_V4_COUNTERS_MASK = 1
_V4_DRIVES_MASK = 0
_V4_ENCODERS_MASK = 0
_2THETACOUNTS = 1
; 2THETA  Cnt1_D1
  11.5000        532
  11.5200        505
  11.5400        502
  11.5600        505
  11.5800        474
  11.6000        502
  11.6200        506
  11.6400        492
  11.6600        530
  11.6800        518
  11.7000        523
  11.7200        493
  11.7400        496
  11.7600        482
  11.7800        496
  11.8000        547
  11.8200        514
  11.8400        514
  11.8600        494
  11.8800        533
  11.9000        553
  11.9200        526
  11.9400        504
  11.9600        493
  11.9800        551
  12.0000        557
  12.0200        506
  12.0400        559
  12.0600        524
  12.0800        578
  12.1000        514
  12.1200        557
  12.1400        533
  12.1600        510
  12.1800        551
  12.2000        518
  12.2200        510
  12.2400        574
  12.2600        563
  12.2800        552
  12.3000        521
  12.3200        532
  12.3400        532
  12.3600        593
  12.3800        563
  12.4000        602
  12.4200        556
  12.4400        524
  12.4600        563
  12.4800        590
  12.5000        535
  12.5200        578
  12.5400        605
  12.5600        530
  12.5800        571
  12.6000        565
  12.6200        554
  12.6400        623
  12.6600        589
  12.6800        628
  12.7000        595
  12.7200        564
  12.7400        607
  12.7600        630
  12.7800        608
  12.8000        614
  12.8200        605
  12.8400        596
  12.8600        613
  12.8800        584
  12.9000        593
  12.9200        578
  12.9400        595
  12.9600        592
  12.9800        623
  13.0000        556
  13.0200        595
  13.0400        596
  13.0600        574
  13.0800        620
  13.1000        578
  13.1200        618
  13.1400        600
  13.1600        636
  13.1800        626
  13.2000        635
  13.2200        632
  13.2400        635
  13.2600        635
  13.2800        664
  13.3000        610
  13.3200        632
  13.3400        708
  13.3600        720
  13.3800        653
  13.4000        688
  13.4200        696
  13.4400        720
  13.4600        744
  13.4800        775
  13.5000        769
  13.5200        764
  13.5400        796
  13.5600        828
  13.5800        877
  13.6000        866
  13.6200        954
  13.6400        902
  13.6600        956
  13.6800        947
  13.7000       1064
  13.7200       1175
  13.7400       1255
  13.7600       1444
  13.7800       1711
  13.8000       2009
  13.8200       2638
  13.8400       3638
  13.8600       4990
  13.8800       7376
  13.9000      10211
  13.9200      13028
  13.9400      16129
  13.9600      19482
  13.9800      22891
  14.0000      25936
  14.0200      27509
  14.0400      28441
  14.0600      28853
  14.0800      28242
  14.1000      25870
  14.1200      22326
  14.1400      18872
  14.1600      15284
  14.1800      12102
  14.2000       9125
  14.2200       6298
  14.2400       3947
  14.2600       2648
  14.2800       1765
  14.3000       1441
  14.3200       1207
  14.3400       1117
  14.3600       1024
  14.3800        964
  14.4000        940
  14.4200        834
  14.4400        778
  14.4600        774
  14.4800        833
  14.5000        847
  14.5200        770
  14.5400        768
  14.5600        755
  14.5800        718
  14.6000        702
  14.6200        722
  14.6400        762
  14.6600        748
  14.6800        658
  14.7000        744
  14.7200        736
  14.7400        725
  14.7600        686
  14.7800        692
  14.8000        671
  14.8200        700
  14.8400        709
  14.8600        696
  14.8800        720
  14.9000        690
  14.9200        692
  14.9400        756
  14.9600        692
  14.9800        653
  15.0000        668
